Vds	Ix(U1:drainin)
Step Information: Vgs=2  (Step: 1/4)
0.000000000000000e+00	-8.849613e-07
1.000000000000000e-02	5.663320e-01
2.000000000000000e-02	1.116109e+00
3.000000000000000e-02	1.649857e+00
4.000000000000000e-02	2.168088e+00
5.000000000000000e-02	2.671306e+00
6.000000000000000e-02	3.160000e+00
7.000000000000001e-02	3.634650e+00
8.000000000000000e-02	4.095718e+00
9.000000000000000e-02	4.543659e+00
1.000000000000000e-01	4.978911e+00
1.100000000000000e-01	5.401899e+00
1.200000000000000e-01	5.813038e+00
1.300000000000000e-01	6.218385e+00
1.400000000000000e-01	6.606843e+00
1.500000000000000e-01	6.984592e+00
1.600000000000000e-01	7.352022e+00
1.700000000000000e-01	7.709480e+00
1.800000000000000e-01	8.057305e+00
1.900000000000000e-01	8.395823e+00
2.000000000000000e-01	8.725348e+00
2.100000000000000e-01	9.046182e+00
2.200000000000000e-01	9.358618e+00
2.300000000000000e-01	9.662937e+00
2.400000000000000e-01	9.959412e+00
2.500000000000000e-01	1.024830e+01
2.600000000000000e-01	1.052986e+01
2.700000000000000e-01	1.080433e+01
2.800000000000000e-01	1.107195e+01
2.900000000000000e-01	1.133293e+01
3.000000000000000e-01	1.158750e+01
3.100000000000000e-01	1.183587e+01
3.200000000000000e-01	1.207823e+01
3.300000000000000e-01	1.231478e+01
3.400000000000000e-01	1.254570e+01
3.500000000000000e-01	1.277118e+01
3.600000000000000e-01	1.299139e+01
3.700000000000000e-01	1.320649e+01
3.800000000000000e-01	1.341664e+01
3.900000000000000e-01	1.362200e+01
4.000000000000000e-01	1.382271e+01
4.100000000000000e-01	1.401892e+01
4.200000000000000e-01	1.421077e+01
4.300000000000000e-01	1.439838e+01
4.400000000000000e-01	1.458189e+01
4.500000000000000e-01	1.476143e+01
4.600000000000000e-01	1.493710e+01
4.700000000000000e-01	1.510902e+01
4.800000000000000e-01	1.527730e+01
4.900000000000000e-01	1.544206e+01
5.000000000000000e-01	1.560339e+01
5.100000000000000e-01	1.576138e+01
5.200000000000000e-01	1.591615e+01
5.300000000000000e-01	1.606777e+01
5.400000000000000e-01	1.621634e+01
5.500000000000000e-01	1.636194e+01
5.600000000000001e-01	1.650466e+01
5.700000000000001e-01	1.664458e+01
5.800000000000000e-01	1.678176e+01
5.900000000000000e-01	1.691630e+01
6.000000000000000e-01	1.704826e+01
6.100000000000000e-01	1.717770e+01
6.200000000000000e-01	1.730470e+01
6.300000000000000e-01	1.742933e+01
6.400000000000000e-01	1.755164e+01
6.500000000000000e-01	1.767169e+01
6.600000000000000e-01	1.778955e+01
6.700000000000000e-01	1.790527e+01
6.800000000000000e-01	1.801890e+01
6.900000000000001e-01	1.813050e+01
7.000000000000001e-01	1.824013e+01
7.100000000000000e-01	1.834782e+01
7.200000000000000e-01	1.845364e+01
7.300000000000000e-01	1.855762e+01
7.400000000000000e-01	1.865981e+01
7.500000000000000e-01	1.876026e+01
7.600000000000000e-01	1.885900e+01
7.700000000000000e-01	1.895609e+01
7.800000000000000e-01	1.905155e+01
7.900000000000000e-01	1.914543e+01
8.000000000000000e-01	1.923777e+01
8.100000000000001e-01	1.932859e+01
8.200000000000001e-01	1.941795e+01
8.300000000000001e-01	1.950586e+01
8.400000000000000e-01	1.959237e+01
8.500000000000000e-01	1.967751e+01
8.600000000000000e-01	1.976130e+01
8.700000000000000e-01	1.984379e+01
8.800000000000000e-01	1.992499e+01
8.900000000000000e-01	2.000493e+01
9.000000000000000e-01	2.008366e+01
9.100000000000000e-01	2.016118e+01
9.200000000000000e-01	2.023753e+01
9.300000000000000e-01	2.031274e+01
9.400000000000001e-01	2.038683e+01
9.500000000000001e-01	2.045981e+01
9.600000000000000e-01	2.053173e+01
9.700000000000000e-01	2.060259e+01
9.800000000000000e-01	2.067242e+01
9.900000000000000e-01	2.074125e+01
1.000000000000000e+00	2.080909e+01
1.010000000000000e+00	2.087597e+01
1.020000000000000e+00	2.094189e+01
1.030000000000000e+00	2.100690e+01
1.040000000000000e+00	2.107099e+01
1.050000000000000e+00	2.113420e+01
1.060000000000000e+00	2.119654e+01
1.070000000000000e+00	2.125802e+01
1.080000000000000e+00	2.131866e+01
1.090000000000000e+00	2.137849e+01
1.100000000000000e+00	2.143751e+01
1.110000000000000e+00	2.149575e+01
1.120000000000000e+00	2.155321e+01
1.130000000000000e+00	2.160991e+01
1.140000000000000e+00	2.166587e+01
1.150000000000000e+00	2.172110e+01
1.160000000000000e+00	2.177561e+01
1.170000000000000e+00	2.182943e+01
1.180000000000000e+00	2.188255e+01
1.190000000000000e+00	2.193500e+01
1.200000000000000e+00	2.198678e+01
1.210000000000000e+00	2.203792e+01
1.220000000000000e+00	2.208842e+01
1.230000000000000e+00	2.213828e+01
1.240000000000000e+00	2.218753e+01
1.250000000000000e+00	2.223618e+01
1.260000000000000e+00	2.228424e+01
1.270000000000000e+00	2.233171e+01
1.280000000000000e+00	2.237860e+01
1.290000000000000e+00	2.242494e+01
1.300000000000000e+00	2.247072e+01
1.310000000000000e+00	2.251595e+01
1.320000000000000e+00	2.256066e+01
1.330000000000000e+00	2.260484e+01
1.340000000000000e+00	2.264850e+01
1.350000000000000e+00	2.269166e+01
1.360000000000000e+00	2.273432e+01
1.370000000000000e+00	2.277649e+01
1.380000000000000e+00	2.281817e+01
1.390000000000000e+00	2.285939e+01
1.400000000000000e+00	2.290013e+01
1.410000000000000e+00	2.294042e+01
1.420000000000000e+00	2.298026e+01
1.430000000000000e+00	2.301966e+01
1.440000000000000e+00	2.305862e+01
1.450000000000000e+00	2.309716e+01
1.460000000000000e+00	2.313527e+01
1.470000000000000e+00	2.317296e+01
1.480000000000000e+00	2.321025e+01
1.490000000000000e+00	2.324714e+01
1.500000000000000e+00	2.328363e+01
1.510000000000000e+00	2.331973e+01
1.520000000000000e+00	2.335545e+01
1.530000000000000e+00	2.339079e+01
1.540000000000000e+00	2.342576e+01
1.550000000000000e+00	2.346037e+01
1.560000000000000e+00	2.349461e+01
1.570000000000000e+00	2.352851e+01
1.580000000000000e+00	2.356205e+01
1.590000000000000e+00	2.359525e+01
1.600000000000000e+00	2.362811e+01
1.610000000000000e+00	2.366063e+01
1.620000000000000e+00	2.369283e+01
1.630000000000000e+00	2.372471e+01
1.640000000000000e+00	2.375626e+01
1.650000000000000e+00	2.378750e+01
1.660000000000000e+00	2.381844e+01
1.670000000000000e+00	2.384906e+01
1.680000000000000e+00	2.387939e+01
1.690000000000000e+00	2.390942e+01
1.700000000000000e+00	2.393916e+01
1.710000000000000e+00	2.396861e+01
1.720000000000000e+00	2.399778e+01
1.730000000000000e+00	2.402667e+01
1.740000000000000e+00	2.405528e+01
1.750000000000000e+00	2.408363e+01
1.760000000000000e+00	2.411170e+01
1.770000000000000e+00	2.413951e+01
1.780000000000000e+00	2.416706e+01
1.790000000000000e+00	2.419435e+01
1.800000000000000e+00	2.422139e+01
1.810000000000000e+00	2.424818e+01
1.820000000000000e+00	2.427472e+01
1.830000000000000e+00	2.430102e+01
1.840000000000000e+00	2.432708e+01
1.850000000000000e+00	2.435290e+01
1.860000000000000e+00	2.437849e+01
1.870000000000000e+00	2.440385e+01
1.880000000000000e+00	2.442898e+01
1.890000000000000e+00	2.445389e+01
1.900000000000000e+00	2.447857e+01
1.910000000000000e+00	2.450304e+01
1.920000000000000e+00	2.452730e+01
1.930000000000000e+00	2.455134e+01
1.940000000000000e+00	2.457516e+01
1.950000000000000e+00	2.459879e+01
1.960000000000000e+00	2.462221e+01
1.970000000000000e+00	2.464542e+01
1.980000000000000e+00	2.466844e+01
1.990000000000000e+00	2.469116e+01
2.000000000000000e+00	2.471379e+01
2.010000000000000e+00	2.473623e+01
2.020000000000000e+00	2.475847e+01
2.030000000000000e+00	2.478053e+01
2.040000000000000e+00	2.480240e+01
2.050000000000000e+00	2.482409e+01
2.060000000000000e+00	2.484561e+01
2.070000000000000e+00	2.486694e+01
2.080000000000000e+00	2.488810e+01
2.090000000000000e+00	2.490908e+01
2.100000000000000e+00	2.492989e+01
2.110000000000000e+00	2.495053e+01
2.120000000000000e+00	2.497101e+01
2.130000000000000e+00	2.499132e+01
2.140000000000000e+00	2.501147e+01
2.150000000000000e+00	2.503145e+01
2.160000000000000e+00	2.505135e+01
2.170000000000000e+00	2.507102e+01
2.180000000000000e+00	2.509053e+01
2.190000000000000e+00	2.510989e+01
2.200000000000000e+00	2.512909e+01
2.210000000000000e+00	2.514815e+01
2.220000000000000e+00	2.516705e+01
2.230000000000000e+00	2.518581e+01
2.240000000000000e+00	2.520442e+01
2.250000000000000e+00	2.522289e+01
2.260000000000000e+00	2.524122e+01
2.270000000000000e+00	2.525941e+01
2.280000000000000e+00	2.527746e+01
2.290000000000000e+00	2.529537e+01
2.300000000000000e+00	2.531314e+01
2.310000000000000e+00	2.533079e+01
2.320000000000000e+00	2.534830e+01
2.330000000000000e+00	2.536567e+01
2.340000000000000e+00	2.538292e+01
2.350000000000000e+00	2.540004e+01
2.360000000000000e+00	2.541703e+01
2.370000000000000e+00	2.543390e+01
2.380000000000000e+00	2.545065e+01
2.390000000000000e+00	2.546727e+01
2.400000000000000e+00	2.548377e+01
2.410000000000000e+00	2.550015e+01
2.420000000000000e+00	2.551641e+01
2.430000000000000e+00	2.553255e+01
2.440000000000000e+00	2.554858e+01
2.450000000000000e+00	2.556449e+01
2.460000000000000e+00	2.558029e+01
2.470000000000000e+00	2.559598e+01
2.480000000000000e+00	2.561155e+01
2.490000000000000e+00	2.562702e+01
2.500000000000000e+00	2.564237e+01
2.510000000000000e+00	2.565762e+01
2.520000000000000e+00	2.567276e+01
2.530000000000000e+00	2.568780e+01
2.540000000000000e+00	2.570273e+01
2.550000000000000e+00	2.571756e+01
2.560000000000000e+00	2.573228e+01
2.570000000000000e+00	2.574691e+01
2.580000000000000e+00	2.576143e+01
2.590000000000000e+00	2.577585e+01
2.600000000000000e+00	2.579018e+01
2.610000000000000e+00	2.580441e+01
2.620000000000000e+00	2.581854e+01
2.630000000000000e+00	2.583258e+01
2.640000000000000e+00	2.584652e+01
2.650000000000000e+00	2.586037e+01
2.660000000000000e+00	2.587413e+01
2.670000000000000e+00	2.588779e+01
2.680000000000000e+00	2.590137e+01
2.690000000000000e+00	2.591485e+01
2.700000000000000e+00	2.592825e+01
2.710000000000000e+00	2.594156e+01
2.720000000000000e+00	2.595478e+01
2.730000000000000e+00	2.596791e+01
2.740000000000000e+00	2.598096e+01
2.750000000000000e+00	2.599393e+01
2.760000000000000e+00	2.600681e+01
2.770000000000000e+00	2.601960e+01
2.780000000000000e+00	2.603232e+01
2.790000000000000e+00	2.604495e+01
2.800000000000000e+00	2.605751e+01
2.810000000000000e+00	2.606998e+01
2.820000000000000e+00	2.608237e+01
2.830000000000000e+00	2.609469e+01
2.840000000000000e+00	2.610693e+01
2.850000000000000e+00	2.611909e+01
2.860000000000000e+00	2.613118e+01
2.870000000000000e+00	2.614318e+01
2.880000000000000e+00	2.615512e+01
2.890000000000000e+00	2.616698e+01
2.900000000000000e+00	2.617877e+01
2.910000000000000e+00	2.619048e+01
2.920000000000000e+00	2.620213e+01
2.930000000000000e+00	2.621370e+01
2.940000000000000e+00	2.622520e+01
2.950000000000000e+00	2.623663e+01
2.960000000000000e+00	2.624799e+01
2.970000000000000e+00	2.625928e+01
2.980000000000000e+00	2.627050e+01
2.990000000000000e+00	2.628166e+01
3.000000000000000e+00	2.629275e+01
3.010000000000000e+00	2.630377e+01
3.020000000000000e+00	2.631473e+01
3.030000000000000e+00	2.632562e+01
3.040000000000000e+00	2.633645e+01
3.050000000000000e+00	2.634721e+01
3.060000000000000e+00	2.635791e+01
3.070000000000000e+00	2.636855e+01
3.080000000000000e+00	2.637912e+01
3.090000000000000e+00	2.638963e+01
3.100000000000000e+00	2.640008e+01
3.110000000000000e+00	2.641047e+01
3.120000000000000e+00	2.642080e+01
3.130000000000000e+00	2.643107e+01
3.140000000000000e+00	2.644128e+01
3.150000000000000e+00	2.645144e+01
3.160000000000000e+00	2.646153e+01
3.170000000000000e+00	2.647157e+01
3.180000000000000e+00	2.648154e+01
3.190000000000000e+00	2.649147e+01
3.200000000000000e+00	2.650133e+01
3.210000000000000e+00	2.651114e+01
3.220000000000000e+00	2.652090e+01
3.230000000000000e+00	2.653060e+01
3.240000000000000e+00	2.654024e+01
3.250000000000000e+00	2.654984e+01
3.260000000000000e+00	2.655937e+01
3.270000000000000e+00	2.656886e+01
3.280000000000000e+00	2.657829e+01
3.290000000000000e+00	2.658767e+01
3.300000000000000e+00	2.659700e+01
3.310000000000000e+00	2.660628e+01
3.320000000000000e+00	2.661550e+01
3.330000000000000e+00	2.662468e+01
3.340000000000000e+00	2.663381e+01
3.350000000000000e+00	2.664288e+01
3.360000000000000e+00	2.665191e+01
3.370000000000000e+00	2.666089e+01
3.380000000000000e+00	2.666982e+01
3.390000000000000e+00	2.667870e+01
3.400000000000000e+00	2.668753e+01
3.410000000000000e+00	2.669632e+01
3.420000000000000e+00	2.670506e+01
3.430000000000000e+00	2.671375e+01
3.440000000000000e+00	2.672240e+01
3.450000000000000e+00	2.673100e+01
3.460000000000000e+00	2.673956e+01
3.470000000000000e+00	2.674807e+01
3.480000000000000e+00	2.675653e+01
3.490000000000000e+00	2.676495e+01
3.500000000000000e+00	2.677333e+01
3.510000000000000e+00	2.678167e+01
3.520000000000000e+00	2.678996e+01
3.530000000000000e+00	2.679820e+01
3.540000000000000e+00	2.680641e+01
3.550000000000000e+00	2.681457e+01
3.560000000000000e+00	2.682269e+01
3.570000000000000e+00	2.683077e+01
3.580000000000000e+00	2.683881e+01
3.590000000000000e+00	2.684680e+01
3.600000000000000e+00	2.685476e+01
3.610000000000000e+00	2.686267e+01
3.620000000000000e+00	2.687055e+01
3.630000000000000e+00	2.687838e+01
3.640000000000000e+00	2.688618e+01
3.650000000000000e+00	2.689393e+01
3.660000000000000e+00	2.690165e+01
3.670000000000000e+00	2.690933e+01
3.680000000000000e+00	2.691697e+01
3.690000000000000e+00	2.692457e+01
3.700000000000000e+00	2.693213e+01
3.710000000000000e+00	2.693966e+01
3.720000000000000e+00	2.694715e+01
3.730000000000000e+00	2.695460e+01
3.740000000000000e+00	2.696202e+01
3.750000000000000e+00	2.696940e+01
3.760000000000000e+00	2.697674e+01
3.770000000000000e+00	2.698405e+01
3.780000000000000e+00	2.699132e+01
3.790000000000000e+00	2.699856e+01
3.800000000000000e+00	2.700576e+01
3.810000000000000e+00	2.701293e+01
3.820000000000000e+00	2.702006e+01
3.830000000000000e+00	2.702715e+01
3.840000000000000e+00	2.703422e+01
3.850000000000000e+00	2.704125e+01
3.860000000000000e+00	2.704824e+01
3.870000000000000e+00	2.705521e+01
3.880000000000000e+00	2.706213e+01
3.890000000000000e+00	2.706903e+01
3.900000000000000e+00	2.707590e+01
3.910000000000000e+00	2.708273e+01
3.920000000000000e+00	2.708953e+01
3.930000000000000e+00	2.709629e+01
3.940000000000000e+00	2.710303e+01
3.950000000000000e+00	2.710973e+01
3.960000000000000e+00	2.711640e+01
3.970000000000000e+00	2.712304e+01
3.980000000000000e+00	2.712965e+01
3.990000000000000e+00	2.713623e+01
4.000000000000000e+00	2.714278e+01
4.010000000000000e+00	2.714930e+01
4.020000000000000e+00	2.715579e+01
4.030000000000000e+00	2.716225e+01
4.040000000000000e+00	2.716868e+01
4.050000000000000e+00	2.717508e+01
4.060000000000000e+00	2.718145e+01
4.070000000000000e+00	2.718779e+01
4.080000000000000e+00	2.719411e+01
4.090000000000000e+00	2.720039e+01
4.100000000000000e+00	2.720665e+01
4.110000000000000e+00	2.721287e+01
4.120000000000000e+00	2.721907e+01
4.130000000000000e+00	2.722524e+01
4.140000000000000e+00	2.723139e+01
4.150000000000000e+00	2.723750e+01
4.160000000000000e+00	2.724360e+01
4.170000000000000e+00	2.724966e+01
4.180000000000000e+00	2.725569e+01
4.190000000000000e+00	2.726170e+01
4.200000000000000e+00	2.726768e+01
4.210000000000000e+00	2.727364e+01
4.220000000000000e+00	2.727957e+01
4.230000000000000e+00	2.728547e+01
4.240000000000000e+00	2.729135e+01
4.250000000000000e+00	2.729720e+01
4.260000000000000e+00	2.730302e+01
4.270000000000000e+00	2.730882e+01
4.280000000000000e+00	2.731460e+01
4.290000000000000e+00	2.732035e+01
4.300000000000000e+00	2.732607e+01
4.310000000000000e+00	2.733177e+01
4.320000000000000e+00	2.733745e+01
4.330000000000000e+00	2.734310e+01
4.340000000000000e+00	2.734873e+01
4.350000000000001e+00	2.735433e+01
4.360000000000000e+00	2.735991e+01
4.370000000000000e+00	2.736547e+01
4.380000000000000e+00	2.737100e+01
4.390000000000000e+00	2.737651e+01
4.400000000000000e+00	2.738199e+01
4.410000000000000e+00	2.738745e+01
4.420000000000000e+00	2.739289e+01
4.430000000000000e+00	2.739831e+01
4.440000000000000e+00	2.740370e+01
4.450000000000000e+00	2.740907e+01
4.460000000000000e+00	2.741442e+01
4.470000000000000e+00	2.741974e+01
4.480000000000000e+00	2.742505e+01
4.490000000000000e+00	2.743033e+01
4.500000000000000e+00	2.743559e+01
4.510000000000000e+00	2.744082e+01
4.520000000000000e+00	2.744604e+01
4.530000000000000e+00	2.745123e+01
4.540000000000000e+00	2.745641e+01
4.550000000000000e+00	2.746156e+01
4.560000000000000e+00	2.746669e+01
4.570000000000000e+00	2.747180e+01
4.580000000000000e+00	2.747689e+01
4.590000000000000e+00	2.748195e+01
4.600000000000001e+00	2.748700e+01
4.610000000000000e+00	2.749203e+01
4.620000000000000e+00	2.749703e+01
4.630000000000000e+00	2.750202e+01
4.640000000000000e+00	2.750699e+01
4.650000000000000e+00	2.751193e+01
4.660000000000000e+00	2.751686e+01
4.670000000000000e+00	2.752176e+01
4.680000000000000e+00	2.752665e+01
4.690000000000000e+00	2.753152e+01
4.700000000000000e+00	2.753637e+01
4.710000000000000e+00	2.754119e+01
4.720000000000000e+00	2.754600e+01
4.730000000000000e+00	2.755079e+01
4.740000000000000e+00	2.755556e+01
4.750000000000000e+00	2.756032e+01
4.760000000000000e+00	2.756505e+01
4.770000000000000e+00	2.756977e+01
4.780000000000000e+00	2.757446e+01
4.790000000000000e+00	2.757914e+01
4.800000000000000e+00	2.758380e+01
4.810000000000000e+00	2.758844e+01
4.820000000000000e+00	2.759307e+01
4.830000000000000e+00	2.759767e+01
4.840000000000000e+00	2.760226e+01
4.850000000000001e+00	2.760683e+01
4.860000000000000e+00	2.761138e+01
4.870000000000000e+00	2.761592e+01
4.880000000000000e+00	2.762043e+01
4.890000000000000e+00	2.762493e+01
4.900000000000000e+00	2.762942e+01
4.910000000000000e+00	2.763388e+01
4.920000000000000e+00	2.763833e+01
4.930000000000000e+00	2.764276e+01
4.940000000000000e+00	2.764718e+01
4.950000000000000e+00	2.765157e+01
4.960000000000000e+00	2.765595e+01
4.970000000000000e+00	2.766032e+01
4.980000000000000e+00	2.766467e+01
4.990000000000000e+00	2.766900e+01
5.000000000000000e+00	2.767332e+01
5.010000000000000e+00	2.767761e+01
5.020000000000000e+00	2.768190e+01
5.030000000000000e+00	2.768616e+01
5.040000000000000e+00	2.769041e+01
5.050000000000000e+00	2.769465e+01
5.060000000000000e+00	2.769887e+01
5.070000000000000e+00	2.770307e+01
5.080000000000000e+00	2.770726e+01
5.090000000000000e+00	2.771143e+01
5.100000000000001e+00	2.771559e+01
5.110000000000000e+00	2.771973e+01
5.120000000000000e+00	2.772386e+01
5.130000000000000e+00	2.772797e+01
5.140000000000000e+00	2.773207e+01
5.150000000000000e+00	2.773615e+01
5.160000000000000e+00	2.774022e+01
5.170000000000000e+00	2.774427e+01
5.180000000000000e+00	2.774830e+01
5.190000000000000e+00	2.775233e+01
5.200000000000000e+00	2.775633e+01
5.210000000000000e+00	2.776033e+01
5.220000000000000e+00	2.776431e+01
5.230000000000000e+00	2.776827e+01
5.240000000000000e+00	2.777222e+01
5.250000000000000e+00	2.777616e+01
5.260000000000000e+00	2.778008e+01
5.270000000000000e+00	2.778399e+01
5.280000000000000e+00	2.778788e+01
5.290000000000000e+00	2.779176e+01
5.300000000000000e+00	2.779563e+01
5.310000000000000e+00	2.779948e+01
5.320000000000000e+00	2.780332e+01
5.330000000000000e+00	2.780714e+01
5.340000000000000e+00	2.781095e+01
5.350000000000001e+00	2.781475e+01
5.360000000000000e+00	2.781853e+01
5.370000000000000e+00	2.782231e+01
5.380000000000000e+00	2.782606e+01
5.390000000000000e+00	2.782981e+01
5.400000000000000e+00	2.783354e+01
5.410000000000000e+00	2.783726e+01
5.420000000000000e+00	2.784097e+01
5.430000000000000e+00	2.784466e+01
5.440000000000000e+00	2.784834e+01
5.450000000000000e+00	2.785201e+01
5.460000000000000e+00	2.785566e+01
5.470000000000000e+00	2.785930e+01
5.480000000000000e+00	2.786293e+01
5.490000000000000e+00	2.786655e+01
5.500000000000000e+00	2.787015e+01
5.510000000000000e+00	2.787374e+01
5.520000000000000e+00	2.787732e+01
